 redshift sorgente =   1.0000000E-03 fact PopIII=  0.0000000E+00
   E0 [TeV],    E0 [eV],       tau(E0)        e^tau
  2.0000009E-02  2.0000008E+10  2.9583514E-20   1.000000    
  2.4045298E-02  2.4045298E+10  2.9583514E-20   1.000000    
  2.8908806E-02  2.8908806E+10  2.9583514E-20   1.000000    
  3.4756031E-02  3.4756030E+10  2.9583514E-20   1.000000    
  4.1785937E-02  4.1785938E+10  5.1058408E-10   1.000000    
  5.0237749E-02  5.0237747E+10  1.6933200E-06   1.000002    
  6.0399055E-02  6.0399055E+10  1.0174291E-05   1.000010    
  7.2615631E-02  7.2615633E+10  2.9326247E-05   1.000029    
  8.7303191E-02  8.7303193E+10  6.3030537E-05   1.000063    
  0.1049615      1.0496152E+11  1.1723251E-04   1.000117    
  0.1261915      1.2619151E+11  2.0434604E-04   1.000204    
  0.1517156      1.5171556E+11  3.4359362E-04   1.000344    
  0.1824022      1.8240222E+11  5.5697758E-04   1.000557    
  0.2192957      2.1929571E+11  8.7235594E-04   1.000873    
  0.2636514      2.6365143E+11  1.3247879E-03   1.001326    
  0.3169787      3.1697872E+11  1.9430934E-03   1.001945    
  0.3810923      3.8109227E+11  2.7464051E-03   1.002750    
  0.4581737      4.5817368E+11  3.7368189E-03   1.003744    
  0.5508459      5.5084594E+11  4.8863539E-03   1.004898    
  0.6622624      6.6226245E+11  6.1502582E-03   1.006169    
  0.7962146      7.9621456E+11  7.4874535E-03   1.007516    
  0.9572604      9.5726043E+11  8.8275885E-03   1.008867    
   1.150880      1.1508802E+12  1.0098589E-02   1.010150    
   1.383662      1.3836624E+12  1.1271391E-02   1.011335    
   1.663528      1.6635279E+12  1.2302612E-02   1.012379    
   2.000000      2.0000005E+12  1.3193239E-02   1.013281    
   2.404530      2.4045295E+12  1.3987472E-02   1.014086    
   2.890880      2.8908803E+12  1.4744031E-02   1.014853    
   3.475603      3.4756027E+12  1.5656473E-02   1.015780    
   4.178594      4.1785934E+12  1.6941978E-02   1.017086    
   5.023774      5.0237743E+12  1.8777849E-02   1.018955    
   6.039905      6.0399047E+12  2.1406559E-02   1.021637    
   7.261563      7.2615629E+12  2.4864279E-02   1.025176    
   8.730319      8.7303190E+12  2.9859820E-02   1.030310    
   10.49615      1.0496151E+13  3.6957420E-02   1.037649    
   12.61915      1.2619150E+13  4.7481280E-02   1.048627    
   15.17155      1.5171555E+13  6.3854180E-02   1.065937    
   18.24022      1.8240221E+13  8.8737398E-02   1.092794    
   21.92957      2.1929568E+13  0.1280005       1.136554    
   26.36514      2.6365141E+13  0.1890552       1.208108    
   31.69787      3.1697872E+13  0.2817767       1.325483    
   38.10922      3.8109224E+13  0.4161231       1.516073    
   45.81736      4.5817361E+13  0.5984497       1.819296    
   55.08458      5.5084583E+13  0.8235963       2.278680    
   66.22623      6.6226236E+13   1.080105       2.944989    
   79.62144      7.9621446E+13   1.349136       3.854095    
   95.72604      9.5726038E+13   1.607969       4.992661    
   115.0880      1.1508801E+14   1.834119       6.259616    
   138.3662      1.3836622E+14   2.017683       7.520875    
   166.3528      1.6635279E+14   2.141438       8.511673    
 redshift sorgente =   2.0000001E-03 fact PopIII=  0.0000000E+00
   E0 [TeV],    E0 [eV],       tau(E0)        e^tau
  2.0000009E-02  2.0000008E+10  5.9124867E-20   1.000000    
  2.4045298E-02  2.4045298E+10  5.9124867E-20   1.000000    
  2.8908806E-02  2.8908806E+10  5.9124867E-20   1.000000    
  3.4756031E-02  3.4756030E+10  5.9124867E-20   1.000000    
  4.1785937E-02  4.1785938E+10  2.2976285E-09   1.000000    
  5.0237749E-02  5.0237747E+10  3.4457139E-06   1.000003    
  6.0399055E-02  6.0399055E+10  2.0526804E-05   1.000021    
  7.2615631E-02  7.2615633E+10  5.8998368E-05   1.000059    
  8.7303191E-02  8.7303193E+10  1.2663630E-04   1.000127    
  0.1049615      1.0496152E+11  2.3537008E-04   1.000235    
  0.1261915      1.2619151E+11  4.1009070E-04   1.000410    
  0.1517156      1.5171556E+11  6.8925839E-04   1.000690    
  0.1824022      1.8240222E+11  1.1169640E-03   1.001118    
  0.2192957      2.1929571E+11  1.7490407E-03   1.001751    
  0.2636514      2.6365143E+11  2.6555678E-03   1.002659    
  0.3169787      3.1697872E+11  3.8942476E-03   1.003902    
  0.3810923      3.8109227E+11  5.5033606E-03   1.005519    
  0.4581737      4.5817368E+11  7.4867234E-03   1.007515    
  0.5508459      5.5084594E+11  9.7881546E-03   1.009836    
  0.6622624      6.6226245E+11  1.2318040E-02   1.012394    
  0.7962146      7.9621456E+11  1.4994435E-02   1.015107    
  0.9572604      9.5726043E+11  1.7675590E-02   1.017833    
   1.150880      1.1508802E+12  2.0218631E-02   1.020424    
   1.383662      1.3836624E+12  2.2564510E-02   1.022821    
   1.663528      1.6635279E+12  2.4627300E-02   1.024933    
   2.000000      2.0000005E+12  2.6409063E-02   1.026761    
   2.404530      2.4045295E+12  2.7998397E-02   1.028394    
   2.890880      2.8908803E+12  2.9513910E-02   1.029954    
   3.475603      3.4756027E+12  3.1343535E-02   1.031840    
   4.178594      4.1785934E+12  3.3919260E-02   1.034501    
   5.023774      5.0237743E+12  3.7597746E-02   1.038314    
   6.039905      6.0399047E+12  4.2862695E-02   1.043795    
   7.261563      7.2615629E+12  4.9787175E-02   1.051047    
   8.730319      8.7303190E+12  5.9788957E-02   1.061612    
   10.49615      1.0496151E+13  7.3997229E-02   1.076804    
   12.61915      1.2619150E+13  9.5068946E-02   1.099735    
   15.17155      1.5171555E+13  0.1278648       1.136399    
   18.24022      1.8240221E+13  0.1777205       1.194491    
   21.92957      2.1929568E+13  0.2563797       1.292243    
   26.36514      2.6365141E+13  0.3787099       1.460399    
   31.69787      3.1697872E+13  0.5644077       1.758406    
   38.10922      3.8109224E+13  0.8333559       2.301028    
   45.81736      4.5817361E+13   1.198103       3.313823    
   55.08458      5.5084583E+13   1.648296       5.198113    
   66.22623      6.6226236E+13   2.160844       8.678460    
   79.62144      7.9621446E+13   2.698180       14.85268    
   95.72604      9.5726038E+13   3.215117       24.90619    
   115.0880      1.1508801E+14   3.666193       39.10274    
   138.3662      1.3836622E+14   4.031740       56.35890    
   166.3528      1.6635279E+14   4.278237       72.11322    
 redshift sorgente =   3.0000000E-03 fact PopIII=  0.0000000E+00
   E0 [TeV],    E0 [eV],       tau(E0)        e^tau
  2.0000009E-02  2.0000008E+10  8.8624060E-20   1.000000    
  2.4045298E-02  2.4045298E+10  8.8624060E-20   1.000000    
  2.8908806E-02  2.8908806E+10  8.8624060E-20   1.000000    
  3.4756031E-02  3.4756030E+10  8.8624060E-20   1.000000    
  4.1785937E-02  4.1785938E+10  5.3611324E-09   1.000000    
  5.0237749E-02  5.0237747E+10  5.2571813E-06   1.000005    
  6.0399055E-02  6.0399055E+10  3.1057538E-05   1.000031    
  7.2615631E-02  7.2615633E+10  8.9016357E-05   1.000089    
  8.7303191E-02  8.7303193E+10  1.9081727E-04   1.000191    
  0.1049615      1.0496152E+11  3.5441271E-04   1.000355    
  0.1261915      1.2619151E+11  6.1723398E-04   1.000617    
  0.1517156      1.5171556E+11  1.0369943E-03   1.001037    
  0.1824022      1.8240222E+11  1.6799592E-03   1.001681    
  0.2192957      2.1929571E+11  2.6300540E-03   1.002634    
  0.2636514      2.6365143E+11  3.9923387E-03   1.004000    
  0.3169787      3.1697872E+11  5.8534630E-03   1.005871    
  0.3810923      3.8109227E+11  8.2708653E-03   1.008305    
  0.4581737      4.5817368E+11  1.1249714E-02   1.011313    
  0.5508459      5.5084594E+11  1.4705401E-02   1.014814    
  0.6622624      6.6226245E+11  1.8503347E-02   1.018676    
  0.7962146      7.9621456E+11  2.2520941E-02   1.022776    
  0.9572604      9.5726043E+11  2.6544005E-02   1.026899    
   1.150880      1.1508802E+12  3.0360131E-02   1.030826    
   1.383662      1.3836624E+12  3.3879355E-02   1.034460    
   1.663528      1.6635279E+12  3.6974080E-02   1.037666    
   2.000000      2.0000005E+12  3.9647471E-02   1.040444    
   2.404530      2.4045295E+12  4.2032771E-02   1.042929    
   2.890880      2.8908803E+12  4.4309635E-02   1.045306    
   3.475603      3.4756027E+12  4.7061175E-02   1.048186    
   4.178594      4.1785934E+12  5.0931841E-02   1.052251    
   5.023774      5.0237743E+12  5.6459684E-02   1.058084    
   6.039905      6.0399047E+12  6.4368382E-02   1.066485    
   7.261563      7.2615629E+12  7.4768692E-02   1.077635    
   8.730319      8.7303190E+12  8.9787394E-02   1.093942    
   10.49615      1.0496151E+13  0.1111194       1.117528    
   12.61915      1.2619150E+13  0.1427630       1.153456    
   15.17155      1.5171555E+13  0.1920320       1.211709    
   18.24022      1.8240221E+13  0.2669493       1.305974    
   21.92957      2.1929568E+13  0.3851374       1.469816    
   26.36514      2.6365141E+13  0.5689638       1.766436    
   31.69787      3.1697872E+13  0.8478927       2.334722    
   38.10922      3.8109224E+13   1.251698       3.496276    
   45.81736      4.5817361E+13   1.798959       6.043352    
   55.08458      5.5084583E+13   2.474098       11.87099    
   66.22623      6.6226236E+13   3.242216       25.59038    
   79.62144      7.9621446E+13   4.047132       57.23310    
   95.72604      9.5726038E+13   4.821442       124.1440    
   115.0880      1.1508801E+14   5.496222       243.7691    
   138.3662      1.3836622E+14   6.042172       420.8060    
   166.3528      1.6635279E+14   6.410396       608.1345    
 redshift sorgente =   4.0000002E-03 fact PopIII=  0.0000000E+00
   E0 [TeV],    E0 [eV],       tau(E0)        e^tau
  2.0000009E-02  2.0000008E+10  1.1808109E-19   1.000000    
  2.4045298E-02  2.4045298E+10  1.1808109E-19   1.000000    
  2.8908806E-02  2.8908806E+10  1.1808109E-19   1.000000    
  3.4756031E-02  3.4756030E+10  1.1808109E-19   1.000000    
  4.1785937E-02  4.1785938E+10  9.7010968E-09   1.000000    
  5.0237749E-02  5.0237747E+10  7.1277227E-06   1.000007    
  6.0399055E-02  6.0399055E+10  4.1766507E-05   1.000042    
  7.2615631E-02  7.2615633E+10  1.1938022E-04   1.000119    
  8.7303191E-02  8.7303193E+10  2.5557345E-04   1.000256    
  0.1049615      1.0496152E+11  4.7436039E-04   1.000474    
  0.1261915      1.2619151E+11  8.2577579E-04   1.000826    
  0.1517156      1.5171556E+11  1.3868015E-03   1.001388    
  0.1824022      1.8240222E+11  2.2459638E-03   1.002249    
  0.2192957      2.1929571E+11  3.5153965E-03   1.003522    
  0.2636514      2.6365143E+11  5.3351023E-03   1.005349    
  0.3169787      3.1697872E+11  7.8207394E-03   1.007851    
  0.3810923      3.8109227E+11  1.1048923E-02   1.011110    
  0.4581737      4.5817368E+11  1.5025788E-02   1.015139    
  0.5508459      5.5084594E+11  1.9638093E-02   1.019832    
  0.6622624      6.6226245E+11  2.4706183E-02   1.025014    
  0.7962146      7.9621456E+11  3.0066980E-02   1.030524    
  0.9572604      9.5726043E+11  3.5432830E-02   1.036068    
   1.150880      1.1508802E+12  4.0523082E-02   1.041355    
   1.383662      1.3836624E+12  4.5215927E-02   1.046254    
   1.663528      1.6635279E+12  4.9342934E-02   1.050581    
   2.000000      2.0000005E+12  5.2908465E-02   1.054333    
   2.404530      2.4045295E+12  5.6090616E-02   1.057693    
   2.890880      2.8908803E+12  5.9131209E-02   1.060914    
   3.475603      3.4756027E+12  6.2809415E-02   1.064824    
   4.178594      4.1785934E+12  6.7979738E-02   1.070344    
   5.023774      5.0237743E+12  7.5363673E-02   1.078276    
   6.039905      6.0399047E+12  8.5923649E-02   1.089723    
   7.261563      7.2615629E+12  9.9808834E-02   1.104960    
   8.730319      8.7303190E+12  0.1198552       1.127334    
   10.49615      1.0496151E+13  0.1483240       1.159889    
   12.61915      1.2619150E+13  0.1905634       1.209931    
   15.17155      1.5171555E+13  0.2563555       1.292212    
   18.24022      1.8240221E+13  0.3564238       1.428213    
   21.92957      2.1929568E+13  0.5142737       1.672423    
   26.36514      2.6365141E+13  0.7598172       2.137885    
   31.69787      3.1697872E+13   1.132232       3.102574    
   38.10922      3.8109224E+13   1.671151       5.318284    
   45.81736      4.5817361E+13   2.401018       11.03441    
   55.08458      5.5084583E+13   3.301003       27.13985    
   66.22623      6.6226236E+13   4.324223       75.50682    
   79.62144      7.9621446E+13   5.395992       220.5209    
   95.72604      9.5726038E+13   6.426946       618.2829    
   115.0880      1.1508801E+14   7.324205       1516.568    
   138.3662      1.3836622E+14   8.048979       3130.596    
   166.3528      1.6635279E+14   8.537915       5104.691    
 redshift sorgente =   5.0000004E-03 fact PopIII=  0.0000000E+00
   E0 [TeV],    E0 [eV],       tau(E0)        e^tau
  2.0000009E-02  2.0000008E+10  1.4749597E-19   1.000000    
  2.4045298E-02  2.4045298E+10  1.4749597E-19   1.000000    
  2.8908806E-02  2.8908806E+10  1.4749597E-19   1.000000    
  3.4756031E-02  3.4756030E+10  1.4749597E-19   1.000000    
  4.1785937E-02  4.1785938E+10  1.5317523E-08   1.000000    
  5.0237749E-02  5.0237747E+10  9.0573403E-06   1.000009    
  6.0399055E-02  6.0399055E+10  5.2653693E-05   1.000053    
  7.2615631E-02  7.2615633E+10  1.5008994E-04   1.000150    
  8.7303191E-02  8.7303193E+10  3.2090486E-04   1.000321    
  0.1049615      1.0496152E+11  5.9521321E-04   1.000595    
  0.1261915      1.2619151E+11  1.0357164E-03   1.001036    
  0.1517156      1.5171556E+11  1.7386798E-03   1.001740    
  0.1824022      1.8240222E+11  2.8149770E-03   1.002819    
  0.2192957      2.1929571E+11  4.4050673E-03   1.004415    
  0.2636514      2.6365143E+11  6.6838572E-03   1.006706    
  0.3169787      3.1697872E+11  9.7960765E-03   1.009844    
  0.3810923      3.8109227E+11  1.3837529E-02   1.013934    
  0.4581737      4.5817368E+11  1.8814951E-02   1.018993    
  0.5508459      5.5084594E+11  2.4586232E-02   1.024891    
  0.6622624      6.6226245E+11  3.0926542E-02   1.031410    
  0.7962146      7.9621456E+11  3.7632536E-02   1.038350    
  0.9572604      9.5726043E+11  4.4342071E-02   1.045340    
   1.150880      1.1508802E+12  5.0707489E-02   1.052015    
   1.383662      1.3836624E+12  5.6574222E-02   1.058205    
   1.663528      1.6635279E+12  6.1733875E-02   1.063679    
   2.000000      2.0000005E+12  6.6192046E-02   1.068432    
   2.404530      2.4045295E+12  7.0171893E-02   1.072693    
   2.890880      2.8908803E+12  7.3978633E-02   1.076784    
   3.475603      3.4756027E+12  7.8588232E-02   1.081759    
   4.178594      4.1785934E+12  8.5062936E-02   1.088786    
   5.023774      5.0237743E+12  9.4309717E-02   1.098900    
   6.039905      6.0399047E+12  0.1075285       1.113523    
   7.261563      7.2615629E+12  0.1249076       1.133044    
   8.730319      8.7303190E+12  0.1499922       1.161825    
   10.49615      1.0496151E+13  0.1856109       1.203954    
   12.61915      1.2619150E+13  0.2384701       1.269306    
   15.17155      1.5171555E+13  0.3208356       1.378279    
   18.24022      1.8240221E+13  0.4461440       1.562276    
   21.92957      2.1929568E+13  0.6437886       1.903680    
   26.36514      2.6365141E+13  0.9512699       2.588995    
   31.69787      3.1697872E+13   1.417425       4.126482    
   38.10922      3.8109224E+13   2.091712       8.098772    
   45.81736      4.5817361E+13   3.004281       20.17170    
   55.08458      5.5084583E+13   4.129011       62.11647    
   66.22623      6.6226236E+13   5.406863       222.9312    
   79.62144      7.9621446E+13   6.744761       849.5961    
   95.72604      9.5726038E+13   8.031629       3076.749    
   115.0880      1.1508801E+14   9.150144       9415.793    
   138.3662      1.3836622E+14   10.05216       23205.84    
   166.3528      1.6635279E+14   10.66080       42650.54    
 redshift sorgente =   6.0000001E-03 fact PopIII=  0.0000000E+00
   E0 [TeV],    E0 [eV],       tau(E0)        e^tau
  2.0000009E-02  2.0000008E+10  1.7686866E-19   1.000000    
  2.4045298E-02  2.4045298E+10  1.7686866E-19   1.000000    
  2.8908806E-02  2.8908806E+10  1.7686866E-19   1.000000    
  3.4756031E-02  3.4756030E+10  1.7686866E-19   1.000000    
  4.1785937E-02  4.1785938E+10  2.2210406E-08   1.000000    
  5.0237749E-02  5.0237747E+10  1.1046029E-05   1.000011    
  6.0399055E-02  6.0399055E+10  6.3719090E-05   1.000064    
  7.2615631E-02  7.2615633E+10  1.8114554E-04   1.000181    
  8.7303191E-02  8.7303193E+10  3.8681147E-04   1.000387    
  0.1049615      1.0496152E+11  7.1697100E-04   1.000717    
  0.1261915      1.2619151E+11  1.2470554E-03   1.001248    
  0.1517156      1.5171556E+11  2.0926287E-03   1.002095    
  0.1824022      1.8240222E+11  3.3869988E-03   1.003393    
  0.2192957      2.1929571E+11  5.2990667E-03   1.005313    
  0.2636514      2.6365143E+11  8.0386037E-03   1.008071    
  0.3169787      3.1697872E+11  1.1779475E-02   1.011849    
  0.3810923      3.8109227E+11  1.6636685E-02   1.016776    
  0.4581737      4.5817368E+11  2.2617197E-02   1.022875    
  0.5508459      5.5084594E+11  2.9549815E-02   1.029991    
  0.6622624      6.6226245E+11  3.7164424E-02   1.037864    
  0.7962146      7.9621456E+11  4.5217626E-02   1.046255    
  0.9572604      9.5726043E+11  5.3271726E-02   1.054716    
   1.150880      1.1508802E+12  6.0913343E-02   1.062807    
   1.383662      1.3836624E+12  6.7954242E-02   1.070316    
   1.663528      1.6635279E+12  7.4146889E-02   1.076965    
   2.000000      2.0000005E+12  7.9498202E-02   1.082744    
   2.404530      2.4045295E+12  8.4276646E-02   1.087930    
   2.890880      2.8908803E+12  8.8851899E-02   1.092919    
   3.475603      3.4756027E+12  9.4397634E-02   1.098997    
   4.178594      4.1785934E+12  0.1021814       1.107584    
   5.023774      5.0237743E+12  0.1132978       1.119965    
   6.039905      6.0399047E+12  0.1291829       1.137898    
   7.261563      7.2615629E+12  0.1500650       1.161910    
   8.730319      8.7303190E+12  0.1801986       1.197455    
   10.49615      1.0496151E+13  0.2229803       1.249796    
   12.61915      1.2619150E+13  0.2864833       1.331736    
   15.17155      1.5171555E+13  0.3854721       1.470308    
   18.24022      1.8240221E+13  0.5361098       1.709344    
   21.92957      2.1929568E+13  0.7736821       2.167733    
   26.36514      2.6365141E+13   1.143322       3.137172    
   31.69787      3.1697872E+13   1.703473       5.492990    
   38.10922      3.8109224E+13   2.513384       12.34664    
   45.81736      4.5817361E+13   3.608747       36.91975    
   55.08458      5.5084583E+13   4.958122       142.3263    
   66.22623      6.6226236E+13   6.490137       658.6133    
   79.62144      7.9621446E+13   8.093437       3272.918    
   95.72604      9.5726038E+13   9.635488       15298.16    
   115.0880      1.1508801E+14   10.97404       58339.59    
   138.3662      1.3836622E+14   12.05171       171392.9    
   166.3528      1.6635279E+14   12.77903       354702.1    
 redshift sorgente =   7.0000002E-03 fact PopIII=  0.0000000E+00
   E0 [TeV],    E0 [eV],       tau(E0)        e^tau
  2.0000009E-02  2.0000008E+10  2.0619922E-19   1.000000    
  2.4045298E-02  2.4045298E+10  2.0619922E-19   1.000000    
  2.8908806E-02  2.8908806E+10  2.0619922E-19   1.000000    
  3.4756031E-02  3.4756030E+10  2.0619922E-19   1.000000    
  4.1785937E-02  4.1785938E+10  3.0379756E-08   1.000000    
  5.0237749E-02  5.0237747E+10  1.3093791E-05   1.000013    
  6.0399055E-02  6.0399055E+10  7.4962736E-05   1.000075    
  7.2615631E-02  7.2615633E+10  2.1254703E-04   1.000213    
  8.7303191E-02  8.7303193E+10  4.5329332E-04   1.000453    
